#  __      __   ______   __       __  _______    ______               
# |  \    /  \ /      \ |  \     /  \|       \  /      \              
#  \$$\  /  $$|  $$$$$$\| $$\   /  $$| $$$$$$$\|  $$$$$$\             
#   \$$\/  $$ | $$__| $$| $$$\ /  $$$| $$__/ $$| $$  | $$             
#    \$$  $$  | $$    $$| $$$$\  $$$$| $$    $$| $$  | $$             
#     \$$$$   | $$$$$$$$| $$\$$ $$ $$| $$$$$$$\| $$  | $$             
#     | $$    | $$  | $$| $$ \$$$| $$| $$__/ $$| $$__/ $$             
#     | $$    | $$  | $$| $$  \$ | $$| $$    $$ \$$    $$             
#      \$$     \$$   \$$ \$$      \$$ \$$$$$$$   \$$$$$$              
#                                                                     
# Version 5.3.0 Revision 23927 Hash (prev commit) 1730222ea           
#                     Branch is (HEAD                                 
#            MPI+OpenMP+SLK+HDF5_MPI_IO Build                         
#                http://www.yambo-code.eu                             
#
# Absorption @ Q(1):  0.577350259     0.577350259     0.577350259    [q->0 direction]
#
# [ X ] Hartree size                              :  1
# [GEN] GF Energies                               : Perdew, Burke & Ernzerhof(X)+Perdew, Burke & Ernzerhof(C)
# [GEN] Green`s Function                          : T-ordered
#
# [GEN] Gauge                                     : Length
# [GEN] [r,Vnl] included                          : yes
#
#    E[1] [eV]          Im(eps)            Re(eps)            Im(eps_o)          Re(eps_o)
#
        0.000000           0.023979           2.491416           0.023979           2.491416
        0.020000           0.023980           2.491433           0.023980           2.491433
        0.040000           0.023983           2.491485           0.023983           2.491485
        0.060000           0.023989           2.491576           0.023989           2.491576
        0.080000           0.023997           2.491706           0.023997           2.491705
        0.100000           0.024007           2.491862           0.024007           2.491863
        0.120000           0.024019           2.492060           0.024019           2.492061
        0.140000           0.024034           2.492292           0.024034           2.492292
        0.160000           0.024051           2.492562           0.024051           2.492562
        0.180000           0.024070           2.492870           0.024070           2.492869
        0.200000           0.024092           2.493208           0.024091           2.493208
        0.220000           0.024115           2.493585           0.024115           2.493585
        0.240000           0.024141           2.494005           0.024141           2.494004
        0.260000           0.024170           2.494455           0.024170           2.494456
        0.280000           0.024201           2.494936           0.024201           2.494936
        0.300000           0.024234           2.495460           0.024234           2.495460
        0.320000           0.024269           2.496022           0.024269           2.496022
        0.340000           0.024307           2.496624           0.024307           2.496623
        0.360000           0.024347           2.497257           0.024347           2.497257
        0.380000           0.024390           2.497933           0.024390           2.497934
        0.400000           0.024435           2.498642           0.024435           2.498641
        0.420000           0.024483           2.499392           0.024483           2.499393
        0.440000           0.024533           2.500171           0.024533           2.500171
        0.460000           0.024585           2.500989           0.024585           2.500989
        0.480000           0.024640           2.501853           0.024640           2.501853
        0.500000           0.024698           2.502755           0.024698           2.502754
        0.520000           0.024758           2.503692           0.024758           2.503692
        0.540000           0.024821           2.504665           0.024821           2.504665
        0.560000           0.024886           2.505682           0.024886           2.505682
        0.580000           0.024954           2.506738           0.024954           2.506738
        0.600000           0.025025           2.507835           0.025025           2.507835
        0.620000           0.025098           2.508966           0.025098           2.508966
        0.640000           0.025175           2.510142           0.025175           2.510142
        0.660000           0.025254           2.511358           0.025254           2.511358
        0.680000           0.025336           2.512608           0.025336           2.512608
        0.700000           0.025421           2.513904           0.025421           2.513904
        0.720000           0.025508           2.515241           0.025508           2.515241
        0.740000           0.025599           2.516619           0.025599           2.516619
        0.760000           0.025693           2.518039           0.025693           2.518039
        0.780000           0.025790           2.519499           0.025790           2.519500
        0.800000           0.025889           2.521007           0.025889           2.521007
        0.820000           0.025992           2.522550           0.025992           2.522551
        0.840000           0.026099           2.524149           0.026099           2.524149
        0.860000           0.026208           2.525784           0.026208           2.525784
        0.880000           0.026321           2.527460           0.026321           2.527460
        0.900000           0.026438           2.529187           0.026438           2.529188
        0.920000           0.026557           2.530956           0.026557           2.530956
        0.940000           0.026681           2.532771           0.026681           2.532770
        0.960000           0.026808           2.534623           0.026808           2.534623
        0.980000           0.026938           2.536534           0.026938           2.536535
        1.000000           0.027073           2.538483           0.027073           2.538483
        1.020000           0.027211           2.540490           0.027211           2.540490
        1.040000           0.027353           2.542543           0.027353           2.542543
        1.060000           0.027499           2.544636           0.027499           2.544637
        1.080000           0.027649           2.546789           0.027649           2.546789
        1.100000           0.027804           2.548995           0.027804           2.548995
        1.120000           0.027962           2.551237           0.027962           2.551237
        1.140000           0.028125           2.553545           0.028125           2.553545
        1.160000           0.028293           2.555898           0.028293           2.555898
        1.180000           0.028465           2.558303           0.028465           2.558304
        1.200000           0.028642           2.560764           0.028642           2.560764
        1.220000           0.028823           2.563280           0.028823           2.563280
        1.240000           0.029010           2.565845           0.029010           2.565844
        1.260000           0.029202           2.568470           0.029202           2.568470
        1.280000           0.029398           2.571152           0.029398           2.571152
        1.300000           0.029601           2.573896           0.029601           2.573895
        1.320000           0.029809           2.576695           0.029809           2.576696
        1.340000           0.030022           2.579551           0.030022           2.579551
        1.360000           0.030242           2.582474           0.030242           2.582475
        1.380000           0.030467           2.585456           0.030467           2.585456
        1.400000           0.030699           2.588500           0.030699           2.588500
        1.420000           0.030937           2.591607           0.030937           2.591606
        1.440000           0.031181           2.594779           0.031181           2.594778
        1.460000           0.031432           2.598020           0.031432           2.598019
        1.480000           0.031691           2.601324           0.031691           2.601323
        1.500000           0.031956           2.604691           0.031956           2.604690
        1.520000           0.032229           2.608140           0.032229           2.608141
        1.540000           0.032510           2.611658           0.032510           2.611659
        1.560000           0.032799           2.615247           0.032799           2.615247
        1.580000           0.033096           2.618911           0.033096           2.618911
        1.600000           0.033402           2.622646           0.033402           2.622646
        1.620000           0.033717           2.626464           0.033717           2.626464
        1.640000           0.034041           2.630356           0.034041           2.630356
        1.660000           0.034374           2.634328           0.034374           2.634328
        1.680000           0.034718           2.638381           0.034718           2.638381
        1.700000           0.035072           2.642524           0.035072           2.642524
        1.720000           0.035437           2.646742           0.035437           2.646742
        1.740000           0.035813           2.651056           0.035813           2.651056
        1.760000           0.036201           2.655464           0.036201           2.655464
        1.780000           0.036601           2.659960           0.036601           2.659960
        1.800000           0.037014           2.664549           0.037014           2.664550
        1.820000           0.037441           2.669244           0.037441           2.669243
        1.840000           0.037882           2.674025           0.037882           2.674025
        1.860000           0.038337           2.678923           0.038337           2.678923
        1.880000           0.038808           2.683912           0.038808           2.683913
        1.900000           0.039296           2.689024           0.039296           2.689024
        1.920000           0.039801           2.694237           0.039801           2.694238
        1.940000           0.040324           2.699566           0.040324           2.699566
        1.960000           0.040866           2.705014           0.040866           2.705014
        1.980000           0.041429           2.710585           0.041429           2.710586
        2.000000           0.042014           2.716289           0.042014           2.716289
        2.020000           0.042622           2.722121           0.042622           2.722122
        2.040000           0.043255           2.728082           0.043255           2.728082
        2.060000           0.043915           2.734186           0.043915           2.734186
        2.080000           0.044603           2.740423           0.044603           2.740423
        2.100000           0.045323           2.746823           0.045323           2.746823
        2.120000           0.046077           2.753369           0.046077           2.753369
        2.140000           0.046867           2.760073           0.046867           2.760073
        2.160000           0.047699           2.766943           0.047699           2.766943
        2.180000           0.048576           2.773991           0.048576           2.773990
        2.200000           0.049504           2.781225           0.049504           2.781225
        2.220000           0.050490           2.788640           0.050490           2.788640
        2.240000           0.051541           2.796250           0.051541           2.796251
        2.260000           0.052669           2.804060           0.052669           2.804060
        2.280000           0.053885           2.812090           0.053885           2.812091
        2.300000           0.055207           2.820329           0.055207           2.820328
        2.320000           0.056654           2.828768           0.056654           2.828767
        2.340000           0.058247           2.837402           0.058247           2.837403
        2.360000           0.060008           2.846244           0.060008           2.846244
        2.380000           0.061947           2.855223           0.061947           2.855224
        2.400000           0.064045           2.864300           0.064045           2.864300
        2.420000           0.066235           2.873423           0.066235           2.873423
        2.440000           0.068420           2.882631           0.068420           2.882631
        2.460000           0.070532           2.892003           0.070532           2.892003
        2.480000           0.072595           2.901655           0.072595           2.901656
        2.500000           0.074682           2.911651           0.074682           2.911651
        2.520000           0.076836           2.921971           0.076836           2.921972
        2.540000           0.079060           2.932628           0.079060           2.932629
        2.560000           0.081363           2.943657           0.081363           2.943657
        2.580000           0.083761           2.955076           0.083761           2.955076
        2.600000           0.086235           2.966896           0.086235           2.966896
        2.620000           0.088763           2.979215           0.088763           2.979214
        2.640000           0.091401           2.992190           0.091401           2.992189
        2.660000           0.094303           3.005918           0.094303           3.005917
        2.680000           0.097640           3.020404           0.097640           3.020404
        2.700000           0.101556           3.035608           0.101556           3.035608
        2.720000           0.106165           3.051483           0.106165           3.051482
        2.740000           0.111559           3.067952           0.111559           3.067952
        2.760000           0.117800           3.084903           0.117800           3.084903
        2.780000           0.124916           3.102324           0.124915           3.102323
        2.800000           0.132922           3.120182           0.132922           3.120183
        2.820000           0.141900           3.138534           0.141900           3.138533
        2.840000           0.152078           3.157459           0.152078           3.157459
        2.860000           0.163817           3.176831           0.163817           3.176832
        2.880000           0.177456           3.196272           0.177456           3.196271
        2.900000           0.193081           3.215195           0.193081           3.215194
        2.920000           0.210385           3.233003           0.210385           3.233003
        2.940000           0.228731           3.249442           0.228731           3.249442
        2.960000           0.247580           3.264826           0.247580           3.264826
        2.980000           0.266999           3.279698           0.266999           3.279699
        3.000000           0.287553           3.294170           0.287553           3.294171
        3.020000           0.309681           3.307741           0.309681           3.307741
        3.040000           0.333352           3.319634           0.333352           3.319635
        3.060000           0.358028           3.329146           0.358028           3.329146
        3.080000           0.382858           3.336077           0.382859           3.336078
        3.100000           0.407247           3.340757           0.407247           3.340757
        3.120000           0.431260           3.343253           0.431260           3.343254
        3.140000           0.454604           3.342613           0.454604           3.342613
        3.160000           0.475101           3.337992           0.475101           3.337991
        3.180000           0.489595           3.331094           0.489595           3.331094
        3.200000           0.497129           3.326291           0.497129           3.326290
        3.220000           0.500481           3.327476           0.500482           3.327477
        3.240000           0.504058           3.335161           0.504058           3.335161
        3.260000           0.510722           3.347068           0.510722           3.347067
        3.280000           0.520626           3.360403           0.520626           3.360402
        3.300000           0.532358           3.374075           0.532358           3.374076
        3.320000           0.544981           3.388783           0.544981           3.388783
        3.340000           0.559159           3.405628           0.559159           3.405628
        3.360000           0.576695           3.424681           0.576694           3.424680
        3.380000           0.599352           3.444432           0.599352           3.444431
        3.400000           0.627749           3.462121           0.627749           3.462120
        3.420000           0.660574           3.474635           0.660573           3.474634
        3.440000           0.694427           3.480043           0.694427           3.480042
        3.460000           0.725007           3.479120           0.725007           3.479120
        3.480000           0.749617           3.475418           0.749617           3.475418
        3.500000           0.768587           3.473117           0.768588           3.473118
        3.520000           0.784466           3.474830           0.784466           3.474830
        3.540000           0.800365           3.481142           0.800365           3.481142
        3.560000           0.818748           3.490796           0.818748           3.490796
        3.580000           0.840579           3.501726           0.840580           3.501727
        3.600000           0.865433           3.512260           0.865433           3.512260
        3.620000           0.892371           3.521791           0.892371           3.521790
        3.640000           0.920738           3.530422           0.920738           3.530424
        3.660000           0.950524           3.538628           0.950525           3.538629
        3.680000           0.982353           3.546640           0.982353           3.546641
        3.700000           1.017298           3.554003           1.017298           3.554003
        3.720000           1.056162           3.559230           1.056162           3.559231
        3.740000           1.098799           3.560294           1.098799           3.560295
        3.760000           1.144025           3.555034           1.144025           3.555033
        3.780000           1.189195           3.541565           1.189196           3.541567
        3.800000           1.230182           3.519735           1.230182           3.519734
        3.820000           1.263099           3.492230           1.263099           3.492229
        3.840000           1.286501           3.463437           1.286501           3.463438
        3.860000           1.301281           3.437401           1.301282           3.437401
        3.880000           1.309685           3.417036           1.309685           3.417036
        3.900000           1.314733           3.404134           1.314733           3.404134
        3.920000           1.319883           3.399055           1.319883           3.399054
        3.940000           1.328267           3.400617           1.328269           3.400618
