#                                                                     
# ooooo   oooo ..     ooo        ooo ooooooooo.    .oooo.             
#  `88.   .8" .88.    `88.       .88 `88"   `Y8b  dP"  `Yb            
#   `88. .8" .8"88.    888b     d"88  88     888 88      88           
#    `88.8" .8" `88.   8 Y88. .P  88  88oooo888" 88      88           
#     `88" .88ooo888.  8  `888"   88  88    `88b 88      88           
#      88 .8"     `88. 8    Y     88  88    .88P `8b    d8"           
#     o88o88o      888o8          88 o88bood8P"   `Ybod8P"            
#                                                                     
#                                                                     
# Version 5.3.0 Revision 23927 Hash (prev commit) 1730222ea           
#                      Branch is (HEAD                                
#             MPI+OpenMP+SLK+HDF5_MPI_IO Build                        
#                 http://www.yambo-code.eu                            
#
# Absorption @ Q(1):  0.577350259     0.577350259     0.577350259    [q->0 direction]
#
# [ X ] Hartree size                              :  1
# [GEN] GF Energies                               : Perdew, Burke & Ernzerhof(X)+Perdew, Burke & Ernzerhof(C)
# [GEN] Green`s Function                          : T-ordered
#
# [GEN] Gauge                                     : Length
# [GEN] [r,Vnl] included                          : yes
#
#    E[1] [eV]          Im(eps)            Re(eps)            Im(eps_o)          Re(eps_o)
#
        0.000000           0.053088           2.757607           0.053088           2.757607
        0.020000           0.053153           2.757767           0.053153           2.757767
        0.040000           0.053350           2.758240           0.053350           2.758240
        0.060000           0.053681           2.759032           0.053681           2.759032
        0.080000           0.054153           2.760148           0.054153           2.760149
        0.100000           0.054773           2.761597           0.054773           2.761597
        0.120000           0.055552           2.763389           0.055552           2.763390
        0.140000           0.056504           2.765545           0.056504           2.765544
        0.160000           0.057646           2.768072           0.057646           2.768072
        0.180000           0.059001           2.770994           0.059001           2.770995
        0.200000           0.060597           2.774336           0.060597           2.774335
        0.220000           0.062468           2.778121           0.062468           2.778121
        0.240000           0.064657           2.782388           0.064657           2.782389
        0.260000           0.067217           2.787170           0.067217           2.787171
        0.280000           0.070214           2.792507           0.070214           2.792507
        0.300000           0.073734           2.798450           0.073734           2.798450
        0.320000           0.077883           2.805056           0.077883           2.805056
        0.340000           0.082797           2.812373           0.082797           2.812373
        0.360000           0.088653           2.820469           0.088653           2.820469
        0.380000           0.095681           2.829386           0.095681           2.829386
        0.400000           0.104180           2.839171           0.104180           2.839171
        0.420000           0.114540           2.849831           0.114540           2.849831
        0.440000           0.127276           2.861320           0.127276           2.861320
        0.460000           0.143072           2.873448           0.143072           2.873448
        0.480000           0.162777           2.885795           0.162777           2.885795
        0.500000           0.187399           2.897500           0.187400           2.897500
        0.520000           0.217969           2.907087           0.217970           2.907087
        0.540000           0.255106           2.912051           0.255106           2.912051
        0.560000           0.298284           2.908908           0.298284           2.908907
        0.580000           0.344495           2.893991           0.344495           2.893992
        0.600000           0.388111           2.865739           0.388111           2.865740
        0.620000           0.423448           2.827013           0.423448           2.827013
        0.640000           0.449077           2.783241           0.449077           2.783240
        0.660000           0.467796           2.736997           0.467796           2.736997
        0.680000           0.480853           2.685760           0.480853           2.685760
        0.700000           0.483351           2.627189           0.483351           2.627189
        0.720000           0.467926           2.565941           0.467926           2.565941
        0.740000           0.433143           2.512940           0.433143           2.512940
        0.760000           0.386227           2.477049           0.386227           2.477049
        0.780000           0.337437           2.459667           0.337437           2.459667
        0.800000           0.293898           2.456680           0.293898           2.456680
        0.820000           0.258494           2.462718           0.258494           2.462718
        0.840000           0.231486           2.473422           0.231487           2.473422
        0.860000           0.212008           2.485703           0.212008           2.485703
        0.880000           0.198813           2.497335           0.198813           2.497335
        0.900000           0.190339           2.506591           0.190339           2.506590
        0.920000           0.184525           2.512355           0.184525           2.512356
        0.940000           0.178845           2.514489           0.178845           2.514490
        0.960000           0.171088           2.514467           0.171088           2.514467
        0.980000           0.160644           2.514757           0.160644           2.514758
        1.000000           0.148715           2.517230           0.148715           2.517230
        1.020000           0.137025           2.522201           0.137025           2.522201
        1.040000           0.126626           2.528960           0.126626           2.528960
        1.060000           0.117743           2.536643           0.117743           2.536644
        1.080000           0.110165           2.544760           0.110165           2.544760
        1.100000           0.103622           2.553123           0.103622           2.553123
        1.120000           0.097993           2.561752           0.097993           2.561753
        1.140000           0.093334           2.570667           0.093334           2.570668
        1.160000           0.089761           2.579749           0.089761           2.579749
        1.180000           0.087330           2.588771           0.087330           2.588770
        1.200000           0.085997           2.597459           0.085997           2.597458
        1.220000           0.085611           2.605558           0.085611           2.605558
        1.240000           0.085901           2.612861           0.085901           2.612860
        1.260000           0.086506           2.619299           0.086506           2.619300
        1.280000           0.087123           2.625024           0.087123           2.625024
        1.300000           0.087649           2.630239           0.087649           2.630239
        1.320000           0.088099           2.634953           0.088099           2.634953
        1.340000           0.088302           2.639063           0.088302           2.639063
        1.360000           0.087810           2.642626           0.087810           2.642626
        1.380000           0.086230           2.646158           0.086230           2.646158
        1.400000           0.083666           2.650409           0.083666           2.650409
        1.420000           0.080699           2.655829           0.080699           2.655830
        1.440000           0.077951           2.662382           0.077951           2.662381
        1.460000           0.075805           2.669770           0.075805           2.669770
        1.480000           0.074394           2.677664           0.074394           2.677664
        1.500000           0.073704           2.685781           0.073704           2.685781
        1.520000           0.073639           2.693923           0.073639           2.693922
        1.540000           0.074047           2.701976           0.074047           2.701975
        1.560000           0.074763           2.709935           0.074763           2.709935
        1.580000           0.075692           2.717907           0.075692           2.717907
        1.600000           0.076897           2.726015           0.076897           2.726015
        1.620000           0.078534           2.734251           0.078534           2.734251
        1.640000           0.080704           2.742420           0.080704           2.742421
        1.660000           0.083324           2.750287           0.083324           2.750287
        1.680000           0.086104           2.757696           0.086104           2.757696
        1.700000           0.088703           2.764796           0.088703           2.764796
        1.720000           0.091007           2.771953           0.091007           2.771954
        1.740000           0.093214           2.779431           0.093214           2.779431
        1.760000           0.095576           2.787236           0.095576           2.787237
        1.780000           0.098156           2.795256           0.098156           2.795256
        1.800000           0.100899           2.803476           0.100899           2.803475
        1.820000           0.103848           2.812015           0.103848           2.812015
        1.840000           0.107149           2.820871           0.107149           2.820870
        1.860000           0.110869           2.829967           0.110869           2.829967
        1.880000           0.114970           2.839317           0.114970           2.839317
        1.900000           0.119553           2.849106           0.119553           2.849105
        1.920000           0.124967           2.859345           0.124967           2.859345
        1.940000           0.131622           2.869826           0.131622           2.869826
        1.960000           0.139738           2.880075           0.139739           2.880076
        1.980000           0.149323           2.889556           0.149323           2.889557
        2.000000           0.160248           2.897701           0.160248           2.897702
        2.020000           0.172094           2.903745           0.172094           2.903744
        2.040000           0.183762           2.907068           0.183762           2.907068
        2.060000           0.193600           2.907949           0.193600           2.907949
        2.080000           0.200443           2.907907           0.200443           2.907908
        2.100000           0.204492           2.908855           0.204492           2.908855
        2.120000           0.207015           2.911986           0.207015           2.911986
        2.140000           0.209509           2.917468           0.209509           2.917468
        2.160000           0.213079           2.924623           0.213079           2.924623
        2.180000           0.218106           2.932451           0.218106           2.932450
        2.200000           0.224280           2.940201           0.224281           2.940202
        2.220000           0.231028           2.947618           0.231028           2.947618
        2.240000           0.238035           2.954983           0.238035           2.954983
        2.260000           0.245387           2.962612           0.245387           2.962612
        2.280000           0.253360           2.970578           0.253360           2.970578
        2.300000           0.262177           2.978863           0.262177           2.978862
        2.320000           0.272228           2.987533           0.272228           2.987532
        2.340000           0.284307           2.996310           0.284307           2.996310
        2.360000           0.299200           3.004033           0.299200           3.004032
        2.380000           0.316722           3.008756           0.316722           3.008756
        2.400000           0.335130           3.008700           0.335130           3.008700
        2.420000           0.351542           3.003596           0.351542           3.003596
        2.440000           0.363449           2.995223           0.363449           2.995224
        2.460000           0.370108           2.986498           0.370108           2.986498
        2.480000           0.372628           2.979884           0.372628           2.979883
        2.500000           0.373092           2.976518           0.373092           2.976518
        2.520000           0.373508           2.976083           0.373508           2.976082
        2.540000           0.375003           2.977255           0.375003           2.977255
        2.560000           0.377483           2.978596           0.377483           2.978596
        2.580000           0.379952           2.979309           0.379952           2.979310
        2.600000           0.381327           2.979618           0.381327           2.979617
        2.620000           0.380924           2.980382           0.380925           2.980383
        2.640000           0.378773           2.982919           0.378773           2.982919
        2.660000           0.376027           2.988349           0.376026           2.988348
        2.680000           0.374508           2.996515           0.374508           2.996516
        2.700000           0.375278           3.005852           0.375278           3.005852
        2.720000           0.377740           3.014680           0.377740           3.014680
        2.740000           0.380253           3.022521           0.380253           3.022522
        2.760000           0.381683           3.030472           0.381683           3.030472
        2.780000           0.382247           3.039866           0.382247           3.039866
        2.800000           0.382936           3.051352           0.382936           3.051352
        2.820000           0.384757           3.064775           0.384757           3.064775
        2.840000           0.388277           3.079449           0.388277           3.079449
        2.860000           0.393422           3.094744           0.393422           3.094744
        2.880000           0.399853           3.110585           0.399853           3.110585
        2.900000           0.407805           3.127300           0.407805           3.127299
        2.920000           0.418014           3.144653           0.418014           3.144653
        2.940000           0.430836           3.161730           0.430836           3.161731
        2.960000           0.445798           3.177629           0.445798           3.177629
        2.980000           0.462235           3.192280           0.462235           3.192280
        3.000000           0.480165           3.205821           0.480165           3.205821
        3.020000           0.499871           3.217614           0.499871           3.217614
        3.040000           0.520729           3.226623           0.520728           3.226622
        3.060000           0.541113           3.232363           0.541113           3.232363
        3.080000           0.559344           3.235773           0.559344           3.235773
        3.100000           0.574772           3.238817           0.574772           3.238816
        3.120000           0.588342           3.243359           0.588343           3.243359
        3.140000           0.602061           3.249884           0.602061           3.249884
        3.160000           0.617347           3.257160           0.617347           3.257161
        3.180000           0.633884           3.263563           0.633883           3.263563
        3.200000           0.650339           3.268843           0.650339           3.268843
        3.220000           0.666098           3.273937           0.666098           3.273937
        3.240000           0.681882           3.279687           0.681882           3.279686
        3.260000           0.698652           3.285577           0.698652           3.285576
        3.280000           0.716322           3.290543           0.716322           3.290543
        3.300000           0.733780           3.294128           0.733781           3.294128
        3.320000           0.750022           3.297120           0.750023           3.297120
        3.340000           0.765126           3.300767           0.765127           3.300768
        3.360000           0.779986           3.305766           0.779986           3.305767
        3.380000           0.795561           3.312092           0.795561           3.312092
        3.400000           0.812471           3.319308           0.812471           3.319308
        3.420000           0.831252           3.326962           0.831252           3.326961
        3.440000           0.852357           3.334176           0.852357           3.334176
        3.460000           0.875561           3.339640           0.875561           3.339641
        3.480000           0.899630           3.342479           0.899630           3.342479
        3.500000           0.923016           3.343132           0.923016           3.343132
        3.520000           0.945616           3.343008           0.945617           3.343008
        3.540000           0.968723           3.342408           0.968723           3.342407
        3.560000           0.993079           3.339630           0.993079           3.339629
        3.580000           1.016953           3.332601           1.016953           3.332601
        3.600000           1.036745           3.321305           1.036745           3.321305
        3.620000           1.049394           3.308900           1.049394           3.308899
        3.640000           1.054700           3.300312           1.054700           3.300312
        3.660000           1.055809           3.299774           1.055809           3.299774
        3.680000           1.057926           3.308872           1.057926           3.308871
        3.700000           1.066219           3.326000           1.066219           3.326000
        3.720000           1.084308           3.347082           1.084308           3.347082
        3.740000           1.113132           3.366565           1.113132           3.366565
        3.760000           1.150362           3.379256           1.150362           3.379256
        3.780000           1.191275           3.382306           1.191275           3.382305
        3.800000           1.231093           3.376000           1.231093           3.375999
        3.820000           1.266417           3.362190           1.266417           3.362191
        3.840000           1.294530           3.343155           1.294530           3.343155
        3.860000           1.312886           3.322751           1.312886           3.322751
        3.880000           1.321393           3.307146           1.321393           3.307146
        3.900000           1.324640           3.301984           1.324640           3.301984
        3.920000           1.330038           3.308362           1.330037           3.308361
        3.940000           1.343262           3.322528           1.343262           3.322528
